T,Reference,Pressure
0.0,175.9875,175.9875
0.072,175.7067,175.9875
0.126,175.4961,175.9425
0.181,175.2816,175.9425
0.238,175.0594,175.8975
0.296,174.8332,175.8975
0.353,174.6109,175.83
0.411,174.3847,175.74
0.464,174.178,175.695
0.522,173.9518,175.695
0.579,173.7296,175.7175
0.635,173.5112,175.695
0.692,173.2889,175.5075
0.749,173.0666,175.5075
0.807,172.8404,175.4175
0.865,172.6143,175.3275
0.922,172.392,175.35
0.98,172.1658,175.2375
1.037,171.9435,175.1175
1.094,171.7212,175.0275
1.149,171.5067,174.8925
1.205,171.2884,174.8025
1.314,170.8633,174.5475
1.42,170.4499,174.2025
1.529,170.0249,173.8875
1.64,169.592,173.4525
1.746,169.1786,173.04
1.859,168.738,172.4625
1.975,168.2856,171.8925
2.089,167.841,171.1125
2.192,167.4394,170.2425
2.307,166.9909,169.125
2.41,166.5892,168.165
2.512,166.1915,167.3625
2.618,165.7781,166.425
2.73,165.3413,165.51
2.835,164.9319,164.865
2.948,164.4912,164.25
3.061,164.0505,163.56
3.17,163.6255,163.0125
3.277,163.2082,162.4875
3.391,162.7636,161.9625
3.5,162.3386,161.55
3.608,161.9174,161.115
3.718,161.4884,160.6575
3.829,161.0556,160.2225
3.952,160.5759,159.81
4.059,160.1587,159.51
4.168,159.7336,159.12
4.279,159.3007,158.7525
4.399,158.8328,158.385
4.505,158.4194,158.07
4.612,158.0021,157.68
4.721,157.5771,157.2675
4.831,157.1481,156.9675
4.946,156.6996,156.6
5.06,156.2551,156.2175
5.172,155.8183,155.895
5.281,155.3932,155.5725
5.393,154.9565,155.16
5.503,154.5275,154.89
5.617,154.0829,154.4775
5.727,153.654,154.0875
5.838,153.2211,153.765
5.949,152.7883,153.33
6.061,152.3515,152.94
6.174,151.9108,152.55
6.306,151.3961,152.025
6.419,150.9554,151.635
6.542,150.4757,151.0875
6.653,150.0429,150.63
6.77,149.5866,150.2625
6.887,149.1303,149.7375
7.006,148.6663,149.19
7.118,148.2295,148.6875
7.228,147.8006,148.2
7.342,147.356,147.7425
7.458,146.9036,147.195
7.575,146.4474,146.6925
7.693,145.9872,146.1675
7.811,145.527,145.62
7.923,145.0903,145.11
8.039,144.6379,144.6075
8.152,144.1972,144.15
8.268,143.7449,143.6025
8.382,143.3003,143.1675
8.5,142.8401,142.665
8.621,142.3683,142.0725
8.738,141.912,141.6825
8.866,141.4129,141.225
8.982,140.9605,140.715
9.105,140.4808,140.31
9.218,140.0402,139.875
9.329,139.6073,139.7325
9.445,139.1549,139.3425
9.564,138.6909,138.8175
9.68,138.2385,138.405
9.803,137.7589,137.7675
9.919,137.3065,137.2425
10.036,136.8502,136.8525
10.153,136.394,136.7325
10.263,135.965,136.3725
10.39,135.4697,135.66
10.505,135.0213,135.135
10.624,134.5572,134.49
10.736,134.1205,134.0775
10.856,133.6525,134.0775
10.969,133.2118,133.695
11.086,132.7556,132.9825
11.202,132.3032,132.3675
11.318,131.8508,131.835
11.436,131.3907,131.1525
11.558,130.9149,131.91
11.678,130.4469,130.875
11.798,129.979,129.96
11.916,129.5188,129.39
12.038,129.0431,128.7
12.15,128.6063,128.13
12.275,128.1188,127.7175
12.384,127.6938,128.1075
12.507,127.2141,127.6725
12.622,126.7656,126.87
12.745,126.286,126.135
12.863,125.8258,125.4975
12.987,125.3422,124.995
13.11,124.8626,125.52
13.233,124.3829,124.995
13.345,123.9462,124.1475
13.473,123.447,123.345
13.591,122.9868,122.685
13.716,122.4994,121.9725
13.831,122.0509,123.4575
13.957,121.5596,122.3625
14.078,121.0877,121.0125
14.202,120.6041,120.21
14.324,120.1284,119.4525
14.444,119.6604,118.815
14.568,119.1768,119.985
14.69,118.7011,119.4525
14.803,118.2604,118.5375
14.923,117.7924,117.555
15.036,117.3518,116.82
15.158,116.876,116.0925
15.273,116.4276,115.725
15.408,115.9011,116.8725
15.533,115.4137,116.2725
15.657,114.9301,115.11
15.773,114.4777,114.24
15.897,113.9942,113.37
16.016,113.5301,112.89
16.138,113.0543,114.4875
16.257,112.5903,113.94
16.384,112.095,112.2
16.502,111.6348,110.985
16.621,111.1708,110.37
16.743,110.695,109.8
16.868,110.2076,112.155
16.985,109.7513,111.0525
17.118,109.2326,108.54
17.234,108.7803,107.5725
17.36,108.2889,107.025
17.485,107.8015,106.6575
17.605,107.3335,108.5625
17.72,106.885,108.105
17.845,106.3976,106.5
17.967,105.9218,105.405
18.098,105.4109,104.58
18.218,104.943,103.755
18.344,104.4516,105.6525
18.464,103.9837,105.585
18.589,103.4962,104.0775
18.707,103.036,102.675
18.834,102.5408,101.805
18.957,102.0611,101.01
19.084,101.5659,102.585
19.203,101.1018,102.9075
19.378,100.4193,101.01
19.478,100.0294,99.405
19.583,99.61991,98.79
19.687,99.21434,98.1675
19.79,98.81268,97.9875
19.893,98.41101,100.89
20.002,97.98594,99.75
20.106,97.58037,97.005
20.218,97.14361,95.835
20.318,96.75364,95.5125
20.431,96.31298,94.83
20.542,95.88011,94.8075
20.653,95.44725,97.7775
20.752,95.06117,96.7275
20.86,94.64001,94.44
20.962,94.24224,93.5025
21.068,93.82887,92.9475
21.172,93.4233,92.1525
21.275,93.02164,91.83
21.386,92.58878,94.6425
21.493,92.17151,94.16251
21.593,91.78154,92.2425
21.703,91.35258,90.87
21.803,90.96261,90.315
21.913,90.53364,89.565
22.027,90.08907,89.175
22.132,89.67961,91.8525
22.232,89.28964,91.16251
22.339,88.87237,89.04
22.439,88.48241,87.9825
22.549,88.05344,87.41251
22.651,87.65568,86.7225
22.76,87.23061,86.3325
22.859,86.84454,88.485
22.969,86.41557,88.0275
23.072,86.0139,86.565
23.183,85.58103,85.2825
23.288,85.17157,84.6225
23.398,84.7426,83.9775
23.501,84.34094,83.4525
23.613,83.90417,85.74
23.715,83.5064,84.9825
23.832,83.05014,83.1075
23.933,82.65627,82.125
24.049,82.20391,81.555
24.156,81.78664,80.9775
24.266,81.35767,80.64
24.377,80.9248,81.555
24.482,80.51534,81.78
24.588,80.10198,80.7975
24.704,79.64961,79.6725
24.81,79.23625,79.0125
24.924,78.79168,78.39
25.026,78.39392,78.1425
25.14,77.94935,79.17
25.249,77.52428,78.945
25.364,77.07582,77.47501
25.467,76.67416,76.4025
25.58,76.23349,75.81
25.688,75.81232,75.375
25.806,75.35216,75.945
25.912,74.93879,75.8325
26.029,74.48253,74.985
26.141,74.04576,74.0475
26.254,73.6051,73.2675
26.362,73.18394,72.765
26.473,72.75107,72.21
26.581,72.3299,73.59
26.703,71.85414,72.5775
26.808,71.44467,71.295
26.92,71.0079,70.5675
27.031,70.57504,70.1775
27.143,70.13828,69.5775
27.249,69.72491,69.24
27.372,69.24525,69.855
27.481,68.82018,69.555
27.6,68.35612,68.66251
27.708,67.93495,67.98
27.821,67.49429,67.3575
27.929,67.07312,66.8775
28.046,66.61686,66.675
28.154,66.19569,66.97501
28.271,65.73943,66.4875
28.386,65.29096,65.505
28.506,64.823,64.7325
28.613,64.40573,64.08749
28.736,63.92607,63.675
28.854,63.46591,64.2
28.965,63.03304,63.81
29.08,62.58458,62.715
29.198,62.12442,61.7775
29.309,61.69155,61.32
29.426,61.23529,60.8175
29.533,60.81802,60.4725
29.649,60.36566,60.885
29.764,59.9172,60.63
29.885,59.44534,59.6475
30.004,58.98127,58.71
30.118,58.53671,58.185
30.239,58.06484,57.9075
30.356,57.60857,58.41
30.467,57.17572,57.885
30.588,56.70386,56.835
30.702,56.25929,56.055
30.822,55.79132,55.53
30.937,55.34286,54.93
31.062,54.8554,55.32
31.174,54.41864,55.0275
31.287,53.97797,54.2475
31.4,53.53731,53.535
31.525,53.04985,52.83
31.639,52.60529,52.2975
31.753,52.16071,51.8625
31.866,51.72005,52.1175
31.99,51.2365,51.84
32.101,50.80362,51.045
32.22,50.33956,50.3325
32.34,49.8716,49.8075
32.453,49.43094,49.185
32.564,48.99808,49.5975
32.68,48.54571,49.05
32.811,48.03484,48.1575
32.934,47.55519,47.3775
33.055,47.08333,46.92
33.169,46.63876,46.3725
33.294,46.15131,46.0725
33.414,45.68333,46.1925
33.54,45.19197,45.6825
33.662,44.71622,44.91
33.781,44.25215,44.175
33.898,43.7959,43.65
34.032,43.27333,43.1925
34.155,42.79367,43.17
34.278,42.31401,42.6675
34.401,41.83434,42.0225
34.52,41.37029,41.4975
34.646,40.87892,40.83
34.767,40.40707,40.2375
34.891,39.92351,40.2825
35.016,39.43604,40.0125
35.142,38.94469,39.1425
35.271,38.44162,38.175
35.398,37.94637,37.65
35.523,37.45891,37.305
35.646,36.97923,37.2375
35.778,36.46448,36.78
35.899,35.99261,36.255
36.024,35.50516,35.64
36.148,35.02159,35.04
36.273,34.53413,34.4925
36.397,34.05057,34.4025
36.523,33.55922,33.945
36.644,33.08734,33.21
36.778,32.56479,32.5725
36.899,32.09293,32.07
37.025,31.60156,31.515
37.145,31.13361,31.3575
37.275,30.62663,30.9225
37.4,30.13918,30.3075
37.53,29.63223,29.685
37.659,29.12917,29.0925
37.793,28.60661,28.6575
37.917,28.12305,28.425
38.046,27.61998,27.9675
38.168,27.14423,27.285
38.311,26.58656,26.7375
38.436,26.09911,26.16
38.567,25.58824,25.4325
38.7,25.06958,25.3125
38.826,24.57823,24.9225
38.952,24.08687,24.24
39.076,23.6033,23.76
39.202,23.11195,23.2125
39.335,22.59329,22.935
39.465,22.08633,22.41
39.592,21.59108,21.765
39.719,21.09579,21.3075
39.9,20.38995,20.505
40.008,19.9688,20.0475
40.118,19.53983,19.8225
